Time(sec),Intensity
0,0.4666666667
0.5,0.4666666667
1,0.4666666667
1.5,0.4666666667
2,0.4666666667
2.5,0.4666666667
3,0.4666666667
3.5,0.4666666667
4,0.4666666667
4.5,0.4666666667
5,0.4666666667
5.5,0.4666666667
6,0.4666666667
6.5,0.4666666667
7,0.4666666667
7.5,0.4666666667
8,0.4666666667
8.5,0.4666666667
9,0.4666666667
9.5,0.4666666667
10,0.4654483198
10.5,0.4566332219
11,0.4465997771
11.5,0.4365663323
12,0.4265328874
12.5,0.4164994426
13,0.4064659978
13.5,0.396432553
14,0.3863991082
14.5,0.3763656634
15,0.3663322185
15.5,0.3562987737
16,0.3462653289
16.5,0.3362318841
17,0.3261984393
17.5,0.3161649945
18,0.3061315496
18.5,0.2960981048
19,0.28606466
19.5,0.2760312152
20,0.2675744546
20.5,0.2666666667
21,0.2666666667
21.5,0.2666666667
22,0.2666666667
22.5,0.2666666667
23,0.2666666667
23.5,0.298113791
24,0.3878787879
24.5,0.4787878788
25,0.5696969697
25.5,0.6606060606
26,0.7515151515
26.5,0.8401205937
27,0.8666666667
27.5,0.8666666667
28,0.8666666667
28.5,0.8666666667
29,0.8666666667
29.5,0.8666666667
30,0.8666666667
30.5,0.8666666667
31,0.8666666667
31.5,0.8666666667
32,0.8666666667
32.5,0.8666666667
33,0.8666666667
33.5,0.8352195424
34,0.7454545455
34.5,0.6545454546
35,0.5636363637
35.5,0.4727272728
36,0.3818181819
36.5,0.2933643666
37,0.2746987952
37.5,0.286746988
38,0.2987951808
38.5,0.3108433735
39,0.3228915663
39.5,0.3349397591
40,0.3469879518
40.5,0.3590361446
41,0.3710843374
41.5,0.3831325302
42,0.3951807229
42.5,0.4072289157
43,0.4192771085
43.5,0.4313253012
44,0.443373494
44.5,0.4554216868
45,0.4655765921
45.5,0.4666666667
46,0.4666666667
46.5,0.4666666667
47,0.4666666667
47.5,0.4666666667
48,0.4666666667
48.5,0.4666666667
49,0.4666666667
49.5,0.4666666667
50,0.4666666667
50.5,0.4666666667
51,0.4666666667
51.5,0.4664562146
52,0.4555183947
52.5,0.4387959866
53,0.4220735786
53.5,0.4053511706
54,0.3886287626
54.5,0.3719063545
55,0.3551839465
55.5,0.3384615385
56,0.3217391304
56.5,0.3050167224
57,0.2882943144
57.5,0.2715719063
58,0.2548494983
58.5,0.2381270903
59,0.2214046823
59.5,0.2046822742
60,0.1879598662
60.5,0.1712374582
61,0.1545150501
61.5,0.1387248764
62,0.1602693602
62.5,0.2006734006
63,0.2410774411
63.5,0.2814814815
64,0.3218855219
64.5,0.3622895623
65,0.4024771525
65.5,0.4505050505
66,0.501010101
66.5,0.5515151515
67,0.602020202
67.5,0.6525252525
68,0.703030303
68.5,0.7226931961
69,0.6931323283
69.5,0.6629815745
70,0.6328308207
70.5,0.602680067
71,0.5725293132
71.5,0.5423785594
72,0.5122278057
72.5,0.4820770519
73,0.4519262981
73.5,0.4217755444
74,0.3916247906
74.5,0.3614740368
75,0.3348347074
75.5,0.3232323232
76,0.3131313131
76.5,0.303030303
77,0.2929292929
77.5,0.2828282828
78,0.2727272728
78.5,0.2653195239
79,0.2613119144
79.5,0.2572958501
80,0.2532797858
80.5,0.2492637216
81,0.2452476573
81.5,0.2412315931
82,0.2372155288
82.5,0.2331994645
83,0.2291834003
83.5,0.225167336
84,0.2211512718
84.5,0.2171352075
85,0.2131191432
85.5,0.209103079
86,0.2050870147
86.5,0.2016812043
87,0.2269360269
87.5,0.2673400673
88,0.3077441078
88.5,0.3481481482
89,0.3885521886
89.5,0.428956229
90,0.463011063
90.5,0.4666666667
91,0.4666666667
91.5,0.4666666667
92,0.4666666667
92.5,0.4666666667
93,0.4666666667
93.5,0.4666666667
94,0.4666666667
94.5,0.4666666667
95,0.4666666667
95.5,0.4666666667
96,0.4666666667
96.5,0.4666666667
97,0.4666666667
97.5,0.4666666667
98,0.4666666667
98.5,0.4666666667
99,0.4666666667
99.5,0.4666666667
100,0.4666666667
100.5,0.4666666667
101,0.4666666667
101.5,0.4666666667
102,0.4666666667
102.5,0.4666666667
103,0.4666666667
103.5,0.4666666667
104,0.4666666667
104.5,0.4666666667
105,0.4666666667
105.5,0.4666666667
106,0.4666666667
106.5,0.4666666667
107,0.4666666667
107.5,0.4666666667
108,0.4666666667
108.5,0.4666666667
109,0.4666666667
109.5,0.4666666667
110,0.4666666667
110.5,0.4666666667
111,0.4666666667
111.5,0.4666666667
112,0.4666666667
112.5,0.4666666667
113,0.4666666667
113.5,0.4666666667
114,0.4666666667
114.5,0.4666666667
115,0.4666666667
115.5,0.4666666667
116,0.4666666667
116.5,0.4666666667
117,0.4666666667
117.5,0.4666666667
118,0.4666666667
118.5,0.4666666667
119,0.4666666667
119.5,0.4666666667
120,0.4666666667
120.5,0.4666666667
121,0.4666666667
121.5,0.4666666667
122,0.4666666667
122.5,0.4666666667
123,0.4666666667
123.5,0.4666666667
124,0.4666666667
124.5,0.4666666667
125,0.4666666667
125.5,0.4666666667
126,0.4666666667
126.5,0.4666666667
127,0.4666666667
127.5,0.4666666667
128,0.4666666667
128.5,0.4666666667
129,0.4666666667
129.5,0.4666666667
130,0.4666666667
130.5,0.4666666667
131,0.4666666667
131.5,0.4666666667
132,0.4666666667
132.5,0.4666666667
133,0.4666666667
133.5,0.4666666667
134,0.4666666667
134.5,0.4666666667
135,0.4666666667
135.5,0.4666666667
136,0.4666666667
136.5,0.4666666667
137,0.4666666667
137.5,0.4666666667
138,0.4666666667
138.5,0.4666666667
139,0.4666666667
139.5,0.4666666667
140,0.4666666667
140.5,0.4666666667
141,0.4666666667
141.5,0.4666666667
142,0.4666666667
142.5,0.4666666667
143,0.4666666667
143.5,0.4422077922
144,0.3723905724
144.5,0.3016835017
145,0.230976431
145.5,0.1602693603
146,0.0895622896
146.5,0.0209415786
147,0.0156075808
147.5,0.0390189521
148,0.0624303233
148.5,0.0858416945
149,0.1092530658
149.5,0.132664437
150,0.1560758083
150.5,0.1794871795
151,0.2028985507
151.5,0.226309922
152,0.2497212932
152.5,0.2731326645
153,0.2965440357
153.5,0.3199554069
154,0.3433667782
154.5,0.3667781494
155,0.3901895207
155.5,0.4136008919
156,0.4370122631
156.5,0.459830387
157,0.4666666667
157.5,0.4666666667
158,0.4666666667
158.5,0.4666666667
159,0.4666666667
159.5,0.4666666667
160,0.4646360886
160.5,0.4499442587
161,0.4332218506
161.5,0.4164994426
162,0.3997770346
162.5,0.3830546265
163,0.3663322185
163.5,0.3496098105
164,0.3328874025
164.5,0.3161649944
165,0.2994425864
165.5,0.2827201784
166,0.2659977703
166.5,0.2492753623
167,0.2325529543
167.5,0.2158305462
168,0.1991081382
168.5,0.1823857302
169,0.1656633222
169.5,0.1489409141
170,0.139752518
170.5,0.1737373737
171,0.2141414141
171.5,0.2545454545
172,0.2949494949
172.5,0.3353535353
173,0.3757575758
173.5,0.4173022744
174,0.4673400673
174.5,0.5178451178
175,0.5683501683
175.5,0.6188552188
176,0.6693602693
176.5,0.7182060667
177,0.7132328308
177.5,0.683082077
178,0.6529313232
178.5,0.6227805695
179,0.5926298157
179.5,0.5624790619
180,0.5323283082
180.5,0.5021775544
181,0.4720268006
181.5,0.4418760469
182,0.4117252931
182.5,0.3815745393
183,0.3514237856
183.5,0.3299648365
184,0.3198653198
184.5,0.3097643098
185,0.2996632997
185.5,0.2895622896
186,0.2794612795
186.5,0.2695656881
187,0.2639892905
187.5,0.2599732263
188,0.255957162
188.5,0.2519410978
189,0.2479250335
189.5,0.2439089692
190,0.239892905
190.5,0.2358768407
191,0.2318607765
191.5,0.2278447122
192,0.2238286479
192.5,0.2198125837
193,0.2157965194
193.5,0.2117804552
194,0.2077643909
194.5,0.2037483266
195,0.2052695631
195.5,0.2404040404
196,0.2808080808
196.5,0.3212121212
197,0.3616161616
197.5,0.402020202
198,0.4424242425
198.5,0.4664983165
199,0.4666666667
199.5,0.4666666667
200,0.4666666667
200.5,0.4973176613
201,0.5848101266
201.5,0.6734177215
202,0.7620253164
202.5,0.8506329114
203,0.9054913828
203.5,0.7700680272
204,0.6068027211
204.5,0.4468066467
205,0.3540229885
205.5,0.2873135531
206,0.2936026936
206.5,0.334006734
207,0.3744107744
207.5,0.4148148148
208,0.4552188552
208.5,0.4956228956
209,0.531437564
209.5,0.5478260869
210,0.5623188406
210.5,0.5768115942
211,0.5913043478
211.5,0.5860100148
212,0.5463087248
212.5,0.5060402685
213,0.4657718121
213.5,0.4255033557
214,0.3852348993
214.5,0.344966443
215,0.3046979866
215.5,0.2644295302
216,0.2241610738
216.5,0.2284060193
217,0.3088435374
217.5,0.3904761905
218,0.4592808552
218.5,0.4666666667
219,0.4666666667
219.5,0.4666666667
220,0.4666666667
220.5,0.4666666667
221,0.4666666667
221.5,0.4666666667
222,0.4666666667
222.5,0.4666666667
223,0.4666666667
223.5,0.4666666667
224,0.4666666667
224.5,0.4666666667
225,0.4666666667
225.5,0.4666666667
226,0.4666666667
226.5,0.4666666667
227,0.4666666667
227.5,0.4666666667
228,0.4654483198
228.5,0.4566332219
229,0.4465997771
229.5,0.4365663323
230,0.4265328874
230.5,0.4164994426
231,0.4064659978
231.5,0.396432553
232,0.3863991082
232.5,0.3763656634
233,0.3663322185
233.5,0.3562987737
234,0.3462653289
234.5,0.3362318841
235,0.3261984393
235.5,0.3161649945
236,0.3061315496
236.5,0.2960981048
237,0.28606466
237.5,0.2760312152
238,0.2675744546
238.5,0.2666666667
239,0.2666666667
239.5,0.2666666667
240,0.2666666667
240.5,0.2666666667
241,0.2666666667
241.5,0.298113791
242,0.3878787879
242.5,0.4787878788
243,0.5696969697
243.5,0.6606060606
244,0.7515151515
244.5,0.8401205937
245,0.8666666667
245.5,0.8666666667
246,0.8666666667
246.5,0.8666666667
247,0.8666666667
247.5,0.8666666667
248,0.8666666667
248.5,0.8666666667
249,0.8666666667
249.5,0.8666666667
250,0.8666666667
250.5,0.8666666667
251,0.8666666667
251.5,0.8352195424
252,0.7454545455
252.5,0.6545454546
253,0.5636363637
253.5,0.4727272728
254,0.3818181819
254.5,0.2933643666
255,0.2746987952
255.5,0.286746988
256,0.2987951808
256.5,0.3108433735
257,0.3228915663
257.5,0.3349397591
258,0.3469879518
258.5,0.3590361446
259,0.3710843374
259.5,0.3831325302
260,0.3951807229
260.5,0.4072289157
261,0.4192771085
261.5,0.4313253012
262,0.443373494
